temperature,heat_capacity
200.0,33.3493052996386
201.0,33.35189489006108
202.0,33.35437865484848
203.0,33.35676308714308
204.0,33.35905444145896
205.0,33.36125874228303
206.0,33.36338179234462
207.0,33.36542918056778
208.0,33.367406289719455
209.0,33.36931830376618
210.0,33.37117021495161
211.0,33.372966830606074
212.0,33.374712779699536
213.0,33.37641251914826
214.0,33.37807033988537
215.0,33.37969037270483
216.0,33.381276593888096
217.0,33.38283283062212
218.0,33.38436276621729
219.0,33.3858699451331
220.0,33.38735777781932
221.0,33.38882954538014
222.0,33.390288404068016
223.0,33.39173738961422
224.0,33.39317942140237
225.0,33.3946173064911
226.0,33.396053743491834
227.0,33.39749132630725
228.0,33.398932547735804
229.0,33.40037980294758
230.0,33.4018353928364
231.0,33.40330152725273
232.0,33.404780328122435
233.0,33.40627383245513
234.0,33.40778399524677
235.0,33.409312692280274
236.0,33.41086172282809
237.0,33.41243281226038
238.0,33.414027614562286
239.0,33.41564771476391
240.0,33.417294631285884
241.0,33.41896981820406
242.0,33.42067466743595
243.0,33.42241051085205
244.0,33.424178622314834
245.0,33.42598021964769
246.0,33.42781646653694
247.0,33.42968847436882
248.0,33.43159730400417
249.0,33.43354396749291
250.0,33.4355294297305
251.0,33.43755461005845
252.0,33.43962038381097
253.0,33.44172758380968
254.0,33.443877001808
255.0,33.44606938988736
256.0,33.448305461806754
257.0,33.450585894307196
258.0,33.45291132837287
259.0,33.4552823704504
260.0,33.45769959362755
261.0,33.460163538773216
262.0,33.46267471563945
263.0,33.465233603927416
264.0,33.467840654318046
265.0,33.47049628946901
266.0,33.47320090497892
267.0,33.47595487031994
268.0,33.47875852973989
269.0,33.48161220313504
270.0,33.48451618689421
271.0,33.48747075471567
272.0,33.49047615839731
273.0,33.493532628601166
274.0,33.49664037559337
275.0,33.499799589959885
276.0,33.5030104432992
277.0,33.506273088892826
278.0,33.50958766235386
279.0,33.51295428225495
280.0,33.516373050735865
281.0,33.519844054091614
282.0,33.523367363341706
283.0,33.526943034781084
284.0,33.53057111051341
285.0,33.53425161896737
286.0,33.5379845753963
287.0,33.54176998236204
288.0,33.545607830203124
289.0,33.549498097488176
290.0,33.553440751454815
291.0,33.55743574843444
292.0,33.56148303426371
293.0,33.56558254468275
294.0,33.569734205720664
295.0,33.573937934068915
296.0,33.57819363744274
297.0,33.58250121493106
298.0,33.586860557335314
299.0,33.59127154749749
300.0,33.595734060617744
301.0,33.600247964561916
302.0,33.60481312015927
303.0,33.60942938149081
304.0,33.61409659616835
305.0,33.61881460560485
306.0,33.6235832452759
307.0,33.62840234497329
308.0,33.63327172905005
309.0,33.63819121665808
310.0,33.64316062197794
311.0,33.6481797544415
312.0,33.653248418947385
313.0,33.65836641606955
314.0,33.66353354225929
315.0,33.668749590040626
316.0,33.674014348199684
317.0,33.679327601967685
318.0,33.68468913319843
319.0,33.69009872053977
320.0,33.6955561395998
321.0,33.701061163107546
322.0,33.706613561068586
323.0,33.7122131009156
324.0,33.717859547654
325.0,33.72355266400303
326.0,33.72929221053203
327.0,33.735077945792504
328.0,33.74090962644574
329.0,33.746787007386345
330.0,33.75270984186176
331.0,33.7586778815877
332.0,33.76469087686005
333.0,33.77074857666287
334.0,33.77685072877295
335.0,33.782997079860856
336.0,33.78918737558863
337.0,33.79542136070427
338.0,33.80169877913296
339.0,33.80801937406542
340.0,33.814382888043085
341.0,33.82078906304056
342.0,33.82723764054518
343.0,33.833728361633966
344.0,33.84026096704793
345.0,33.846835197263715
346.0,33.85345079256296
347.0,33.860107493099136
348.0,33.86680503896213
349.0,33.873543170240524
350.0,33.88032162708174
351.0,33.887140149750074
352.0,33.89399847868254
353.0,33.90089635454302
354.0,33.907833518274096
355.0,33.91480971114735
356.0,33.92182467481163
357.0,33.92887815133966
358.0,33.93596988327287
359.0,33.94309961366467
360.0,33.950267086122
361.0,33.95747204484532
362.0,33.96471423466729
363.0,33.97199340108966
364.0,33.97930929031901
365.0,33.986661649300984
366.0,33.994050225753156
367.0,34.00147476819673
368.0,34.00893502598682
369.0,34.01643074934164
370.0,34.023961689370424
371.0,34.03152759810021
372.0,34.039128228501625
373.0,34.0467633345133
374.0,34.05443267106566
375.0,34.06213599410328
376.0,34.069873060606554
377.0,34.07764362861222
378.0,34.08544745723311
379.0,34.093284306676836
380.0,34.10115393826375
381.0,34.109056114444044
382.0,34.1169905988139
383.0,34.12495715613098
384.0,34.13295555232912
385.0,34.14098555453224
386.0,34.149046931067566
387.0,34.1571394514781
388.0,34.1652628865345
389.0,34.173417008246254
390.0,34.18160158987216
391.0,34.18981640593023
392.0,34.19806123220712
393.0,34.20633584576672
394.0,34.21464002495843
395.0,34.22297354942472
396.0,34.23133620010829
397.0,34.23972775925861
398.0,34.248148010438
399.0,34.25659673852733
400.0,34.265073729731064
401.0,34.273578771582024
402.0,34.282111652945645
403.0,34.29067216402379
404.0,34.29926009635822
405.0,34.307875242833596
406.0,34.316517397680194
407.0,34.325186356476095
408.0,34.33388191614925
409.0,34.34260387497895
410.0,34.351352032597106
411.0,34.36012618998921
412.0,34.36892614949491
413.0,34.37775171480832
414.0,34.386602690978044
415.0,34.39547888440695
416.0,34.40438010285155
417.0,34.41330615542124
418.0,34.42225685257728
419.0,34.431232006131424
420.0,34.440231429244385
421.0,34.4492549364241
422.0,34.45830234352371
423.0,34.46737346773934
424.0,34.47646812760773
425.0,34.48558614300353
426.0,34.49472733513662
427.0,34.50389152654899
428.0,34.51307854111166
429.0,34.52228820402128
430.0,34.53152034179669
431.0,34.540774782275136
432.0,34.550051354608584
433.0,34.55934988925966
434.0,34.56867021799756
435.0,34.578012173893796
436.0,34.58737559131785
437.0,34.59676030593264
438.0,34.606166154689866
439.0,34.6155929758253
440.0,34.625040608853965
441.0,34.63450889456507
442.0,34.64399767501704
443.0,34.6535067935323
444.0,34.66303609469204
445.0,34.67258542433085
446.0,34.68215462953128
447.0,34.69174355861836
448.0,34.701352061153955
449.0,34.71097998793108
450.0,34.72062719096827
451.0,34.730293523503626
452.0,34.739978839989014
453.0,34.74968299608409
454.0,34.75940584865037
455.0,34.769147255745075
456.0,34.778907076615134
457.0,34.78868517169096
458.0,34.798481402580244
459.0,34.8082956320617
460.0,34.81812772407886
461.0,34.827977543733645
462.0,34.83784495728007
463.0,34.847729832117786
464.0,34.85763203678567
465.0,34.86755144095538
466.0,34.87748791542486
467.0,34.887441332111784
468.0,34.897411564047076
469.0,34.90739848536829
470.0,34.91740197131305
471.0,34.92742189821246
472.0,34.93745814348449
473.0,34.94751058562732
474.0,34.957579104212705
475.0,34.96766357987931
476.0,34.97776389432609
477.0,34.98787993030552
478.0,34.99801157161702
479.0,35.008158703100214
480.0,35.01832121062822
481.0,35.028498981101016
482.0,35.038691902438686
483.0,35.04889986357474
484.0,35.05912275444947
485.0,35.06936046600316
486.0,35.079612890169514
487.0,35.08987991986885
488.0,35.10016144900153
489.0,35.110457372441225
490.0,35.12076758602825
491.0,35.131091986562936
492.0,35.141430471798984
493.0,35.15178294043677
494.0,35.1621492921168
495.0,35.172529427413046
496.0,35.18292324782634
497.0,35.19333065577783
498.0,35.203751554602334
499.0,35.21418584854189
500.0,35.224633442739105
501.0,35.23509424323068
502.0,35.24556815694086
503.0,35.25605509167504
504.0,35.266554956113154
505.0,35.27706765980333
506.0,35.28759311315539
507.0,35.298131227434475
508.0,35.308681914754615
509.0,35.31924508807235
510.0,35.329820661180435
511.0,35.3404085487014
512.0,35.35100866608137
513.0,35.36162092958364
514.0,35.372245256282525
515.0,35.38288156405707
516.0,35.39352977158481
517.0,35.4041897983356
518.0,35.41486156456544
519.0,35.425544991310346
520.0,35.43624000038019
521.0,35.44694651435263
522.0,35.45766445656706
523.0,35.468393751118505
524.0,35.479134322851664
525.0,35.48988609735489
526.0,35.500649000954205
527.0,35.511422960707385
528.0,35.52220790439806
529.0,35.53300376052979
530.0,35.54381045832024
531.0,35.55462792769531
532.0,35.56545609928338
533.0,35.5762949044095
534.0,35.58714427508964
535.0,35.59800414402499
536.0,35.60887444459624
537.0,35.619755110857945
538.0,35.63064607753285
539.0,35.641547280006364
540.0,35.6524586543208
541.0,35.66338013717008
542.0,35.674311665893995
543.0,35.6852531784728
544.0,35.696204613521736
545.0,35.7071659102856
546.0,35.71813700863335
547.0,35.72911784905265
548.0,35.74010837264463
549.0,35.75110852111847
550.0,35.76211823678614
551.0,35.773137462557145
552.0,35.784166141933284
553.0,35.79520421900343
554.0,35.80625163843836
555.0,35.81730834548558
556.0,35.82837428596427
557.0,35.83944940626011
558.0,35.850533653320255
559.0,35.8616269746483
560.0,35.87272931829925
561.0,35.883840632874616
562.0,35.89496086751734
563.0,35.90608997190698
564.0,35.91722789625478
565.0,35.92837459129876
566.0,35.93953000829897
567.0,35.950694099032624
568.0,35.96186681578931
569.0,35.97304811136627
570.0,35.98423793906365
571.0,35.99543625267983
572.0,36.00664300650675
573.0,36.01785815532523
574.0,36.0290816544004
575.0,36.0403134594771
576.0,36.05155352677536
577.0,36.06280181298578
578.0,36.07405827526512
579.0,36.08532287123176
580.0,36.09659555896127
581.0,36.10787629698204
582.0,36.119165044270794
583.0,36.130461760248295
584.0,36.14176640477495
585.0,36.15307893814656
586.0,36.16439932108995
587.0,36.175727514758805
588.0,36.187063480729336
589.0,36.198407180996156
590.0,36.209758577968024
591.0,36.221117634463745
592.0,36.23248431370802
593.0,36.24385857932732
594.0,36.255240395345865
595.0,36.26662972618149
596.0,36.278026536641676
597.0,36.28943079191952
598.0,36.30084245758977
599.0,36.31226149960489
600.0,36.32368788429107
601.0,36.335121578344385
602.0,36.34656254882692
603.0,36.35801076316283
604.0,36.36946618913462
605.0,36.3809287948793
606.0,36.39239854888457
607.0,36.40387541998507
608.0,36.41535937735874
609.0,36.42685039052297
610.0,36.43834842933103
611.0,36.44985346396831
612.0,36.461365464948784
613.0,36.47288440311134
614.0,36.484410249616175
615.0,36.49594297594125
616.0,36.50748255387876
617.0,36.51902895553156
618.0,36.53058215330973
619.0,36.542142119927064
620.0,36.55370882839759
621.0,36.56528225203218
622.0,36.57686236443512
623.0,36.58844913950075
624.0,36.600042551410034
625.0,36.61164257462728
626.0,36.62324918389679
627.0,36.634862354239544
628.0,36.646482060949985
629.0,36.658108279592646
630.0,36.66974098599903
631.0,36.68138015626432
632.0,36.69302576674421
633.0,36.70467779405176
634.0,36.71633621505416
635.0,36.72800100686968
636.0,36.73967214686452
637.0,36.7513496126497
638.0,36.763033382078035
639.0,36.77472343324105
640.0,36.786419744465945
641.0,36.79812229431261
642.0,36.80983106157063
643.0,36.821546025256225
644.0,36.833267164609445
645.0,36.844994459091126
646.0,36.856727888380014
647.0,36.868467432369854
648.0,36.880213071166516
649.0,36.89196478508516
650.0,36.90372255464737
651.0,36.91548636057834
652.0,36.927256183804076
653.0,36.93903200544861
654.0,36.950813806831206
655.0,36.96260156946367
656.0,36.97439527504759
657.0,36.986194905471606
658.0,36.998000442808724
659.0,37.00981186931368
660.0,37.02162916742022
661.0,37.033452319738515
662.0,37.04528130905249
663.0,37.057116118317246
664.0,37.06895673065644
665.0,37.08080312935978
666.0,37.09265529788038
667.0,37.10451321983226
668.0,37.11637687898789
669.0,37.128246259275556
670.0,37.14012134477693
671.0,37.15200211972468
672.0,37.163888568499836
673.0,37.175780675629525
674.0,37.18767842578444
675.0,37.19958180377646
676.0,37.211490794556255
677.0,37.223405383210924
678.0,37.2353255549616
679.0,37.24725129516116
680.0,37.259182589291804
681.0,37.27111942296286
682.0,37.28306178190835
683.0,37.29500965198481
684.0,37.306963019168975
685.0,37.31892186955553
686.0,37.330886189354835
687.0,37.342855964890795
688.0,37.35483118259852
689.0,37.36681182902222
690.0,37.37879789081301
691.0,37.3907893547267
692.0,37.40278620762167
693.0,37.41478843645674
694.0,37.42679602828901
695.0,37.438808970271786
696.0,37.450827249652455
697.0,37.4628508537704
698.0,37.47487977005491
699.0,37.48691398602323
700.0,37.49895348927834
701.0,37.510998267507084
702.0,37.52304830847803
703.0,37.53510360003957
704.0,37.54716413011787
705.0,37.55922988671486
706.0,37.57130085790635
707.0,37.58337703184002
708.0,37.595458396733505
709.0,37.60754494087244
710.0,37.61963665260858
711.0,37.63173352035783
712.0,37.64383553259848
713.0,37.65594267786919
714.0,37.6680549447672
715.0,37.68017232194646
716.0,37.69229479811578
717.0,37.70442236203704
718.0,37.7165550025233
719.0,37.72869270843702
720.0,37.74083546868836
721.0,37.752983272233195
722.0,37.765136108071566
723.0,37.77729396524575
724.0,37.7894568328386
725.0,37.801624699971825
726.0,37.81379755580414
727.0,37.82597538952972
728.0,37.83815819037632
729.0,37.85034594760377
730.0,37.862538650502124
731.0,37.87473628839007
732.0,37.886938850613284
733.0,37.899146326542734
734.0,37.91135870557308
735.0,37.923575977121004
736.0,37.935798130623624
737.0,37.948025155536854
738.0,37.960257041333875
739.0,37.972493777503445
740.0,37.98473535354843
741.0,37.99698175898412
742.0,38.009232983336815
743.0,38.02148901614212
744.0,38.03374984694355
745.0,38.046015465290886
746.0,38.05828586073873
747.0,38.070561022844984
748.0,38.08284094116932
749.0,38.09512560527176
750.0,38.10741500471109
751.0,38.1197091290435
752.0,38.13200796782104
753.0,38.14431151059024
754.0,38.15661974689059
755.0,38.168932666253156
756.0,38.181250258199185
757.0,38.193572512238596
758.0,38.20589941786867
759.0,38.21823096457262
760.0,38.23056714181815
761.0,38.24290793905616
762.0,38.25525334571932
763.0,38.26760335122073
764.0,38.279957944952585
765.0,38.29231711628476
766.0,38.30468085456356
767.0,38.31704914911032
768.0,38.32942198922015
769.0,38.34179936416058
770.0,38.35418126317024
771.0,38.36656767545766
772.0,38.37895859019983
773.0,38.39135399654108
774.0,38.40375388359169
775.0,38.41615824042672
776.0,38.42856705608467
777.0,38.44098031956629
778.0,38.45339801983335
779.0,38.4658201458073
780.0,38.478246686368244
781.0,38.49067763035352
782.0,38.503112966556614
783.0,38.51555268372593
784.0,38.52799677056359
785.0,38.54044521572425
786.0,38.55289800781391
787.0,38.56535513538878
788.0,38.57781658695406
789.0,38.590282350962845
790.0,38.60275241581496
791.0,38.61522676985573
792.0,38.62770540137499
793.0,38.640188298605864
794.0,38.65267544972364
795.0,38.66516684284472
796.0,38.67766246602544
797.0,38.690162307261026
798.0,38.70266635448446
799.0,38.715174595565394
800.0,38.72768701830915
801.0,38.74020361045551
802.0,38.75272435967774
803.0,38.765249253581544
804.0,38.777778279703924
805.0,38.790311425512236
806.0,38.80284867840308
807.0,38.815390025701234
808.0,38.827935454658764
809.0,38.84048495245385
810.0,38.85303850618986
811.0,38.86559610289427
812.0,38.878157729517795
813.0,38.89072337293319
814.0,38.903293019934445
815.0,38.91586665723574
816.0,38.92844427147037
817.0,38.94102584918993
818.0,38.953611376863236
819.0,38.966200840875395
820.0,38.97879422752687
821.0,38.99139152303251
822.0,39.00399271352062
823.0,39.016597785031976
824.0,39.02920672351898
825.0,39.04181951484463
826.0,39.05443614478171
827.0,39.06705659901176
828.0,39.07968086312426
829.0,39.092308922615686
830.0,39.10494076288858
831.0,39.11757636925072
832.0,39.130215726914216
833.0,39.142858820994554
834.0,39.15550563650983
835.0,39.16815615837981
836.0,39.18081037142507
837.0,39.193468260366124
838.0,39.20612980982262
839.0,39.218795004312454
840.0,39.23146382825089
841.0,39.24413626594974
842.0,39.25681230161662
843.0,39.26949191935396
844.0,39.282175103158266
845.0,39.294861836919324
846.0,39.307552104419294
847.0,39.32024588933202
848.0,39.332943175222105
849.0,39.34564394554416
850.0,39.358348183642036
851.0,39.37105587274798
852.0,39.38376699598186
853.0,39.396481536350414
854.0,39.409199476746416
855.0,39.421920799947976
856.0,39.43464548861771
857.0,39.44737352530199
858.0,39.46010489243018
859.0,39.472839572313895
860.0,39.48557754714626
861.0,39.498318799001126
862.0,39.51106330983235
863.0,39.52381106147307
864.0,39.53656203563496
865.0,39.54931621390746
866.0,39.56207357775711
867.0,39.57483410852683
868.0,39.587597787435136
869.0,39.60036459557552
870.0,39.61313451391564
871.0,39.62590752329673
872.0,39.63868360443279
873.0,39.65146273790996
874.0,39.664244904185814
875.0,39.677030083588676
876.0,39.68981825631689
877.0,39.7026094024382
878.0,39.715403501889064
879.0,39.72820053447394
880.0,39.74100047986469
881.0,39.75380331759983
882.0,39.76660902708394
883.0,39.77941758758698
884.0,39.7922289782436
885.0,39.80504317805259
886.0,39.81786016587615
887.0,39.83067992043924
888.0,39.843502420329045
889.0,39.85632764399421
890.0,39.869155569744294
891.0,39.881986175749134
892.0,39.8948194400382
893.0,39.90765534049998
894.0,39.92049385488136
895.0,39.933334960787036
896.0,39.94617863567889
897.0,39.959024856875395
898.0,39.97187360155098
899.0,39.984724846735446
900.0,39.997578569313426
901.0,40.0104347460237
902.0,40.02329335345869
903.0,40.036154368063805
904.0,40.04901776613691
905.0,40.06188352382775
906.0,40.074751617137316
907.0,40.08762202191733
908.0,40.10049471386972
909.0,40.11336966854591
910.0,40.12624686134636
911.0,40.13912626752002
912.0,40.15200786216375
913.0,40.16489162022176
914.0,40.17777751648501
915.0,40.19066552559079
916.0,40.203555622022066
917.0,40.216447780106975
918.0,40.22934197401833
919.0,40.24223817777304
920.0,40.25513636523152
921.0,40.268036510097325
922.0,40.28093858591644
923.0,40.293842566076954
924.0,40.306748423808344
925.0,40.3196561321811
926.0,40.33256566410614
927.0,40.34547699233432
928.0,40.35839008945597
929.0,40.37130492790028
930.0,40.38422147993493
931.0,40.39713971766546
932.0,40.41005961303493
933.0,40.42298113782326
934.0,40.435904263646854
935.0,40.44882896195807
936.0,40.46175520404471
937.0,40.47468296102962
938.0,40.48761220387013
939.0,40.500542903357584
940.0,40.51347503011693
941.0,40.526408554606164
942.0,40.539343447115925
943.0,40.55227967776899
944.0,40.565217216519834
945.0,40.57815603315415
946.0,40.5910960972884
947.0,40.604037378369355
948.0,40.61697984567366
949.0,40.629923468307325
950.0,40.64286821520537
951.0,40.655814055131295
952.0,40.66876095667666
953.0,40.681708888260644
954.0,40.694657818129656
955.0,40.70760771435679
956.0,40.720558544841516
957.0,40.73351027730913
958.0,40.74646287931044
959.0,40.75941631822123
960.0,40.77237056124187
961.0,40.785325575397
962.0,40.798281327534916
963.0,40.8112377843273
964.0,40.82419491226876
965.0,40.83715267767641
966.0,40.850111046689435
967.0,40.863069985268766
968.0,40.87602945919656
969.0,40.88898943407591
970.0,40.90194987533032
971.0,40.914910748203425
972.0,40.92787201775853
973.0,40.94083364887818
974.0,40.95379560626388
975.0,40.96675785443555
976.0,40.97972035773129
977.0,40.992683080306875
978.0,41.00564598613545
979.0,41.018609039007075
980.0,41.03157220252842
981.0,41.04453544012229
982.0,41.05749871502737
983.0,41.07046199029776
984.0,41.0834252288026
985.0,41.09638839322576
986.0,41.10935144606542
987.0,41.122314349633726
988.0,41.1352770660564
989.0,41.14823955727246
990.0,41.16120178503369
991.0,41.17416371090449
992.0,41.18712529626132
993.0,41.20008650229253
994.0,41.21304728999781
995.0,41.226007620188064
996.0,41.23896745348482
997.0,41.251926750320095
998.0,41.26488547093588
999.0,41.27784357538394
1000.0,41.290801023525376
1000.0,41.29080103242185
1001.0,41.30353173742249
1002.0,41.3162667236574
1003.0,41.32900590952351
1004.0,41.34174921396048
1005.0,41.354496556446975
1006.0,41.367247856996926
1007.0,41.3800030361559
1008.0,41.3927620149975
1009.0,41.4055247151197
1010.0,41.41829105864131
1011.0,41.43106096819838
1012.0,41.443834366940784
1013.0,41.45661117852853
1014.0,41.46939132712848
1015.0,41.482174737410794
1016.0,41.494961334545565
1017.0,41.50775104419938
1018.0,41.52054379253196
1019.0,41.533339506192895
1020.0,41.54613811231818
1021.0,41.558939538527056
