temperature,heat_capacity
200.0,33.32565526321322
201.0,33.32920651170891
202.0,33.3326132658167
203.0,33.335883391441534
204.0,33.33902446926022
205.0,33.34204380496164
206.0,33.34494843909355
207.0,33.347745156532014
208.0,33.350440495589474
209.0,33.35304075677648
210.0,33.355552011231445
211.0,33.3579801088321
212.0,33.36033068600173
213.0,33.36260917322265
214.0,33.36482080226919
215.0,33.366970613171056
216.0,33.36906346091836
217.0,33.371104021918725
218.0,33.373096800216295
219.0,33.37504613348215
220.0,33.376956198785464
221.0,33.37883101815387
222.0,33.380674463931506
223.0,33.382490263942756
224.0,33.38428200646912
225.0,33.386053145046844
226.0,33.38780700309191
227.0,33.38954677835954
228.0,33.39127554724419
229.0,33.392996268926446
230.0,33.39471178937273
231.0,33.39642484519323
232.0,33.398138067363774
233.0,33.39985398481652
234.0,33.401575027904556
235.0,33.403303531745415
236.0,33.40504173944757
237.0,33.40679180522475
238.0,33.408555797402066
239.0,33.41033570131795
240.0,33.412133422125905
241.0,33.41395078749973
242.0,33.41578955024566
243.0,33.41765139082513
244.0,33.419537919791026
245.0,33.4214506801411
246.0,33.42339114959107
247.0,33.42536074277067
248.0,33.42736081334527
249.0,33.429392656065794
250.0,33.43145750874962
251.0,33.433556554194645
252.0,33.435690922029394
253.0,33.437861690500846
254.0,33.44006988820282
255.0,33.44231649574643
256.0,33.444602447375246
257.0,33.44692863252656
258.0,33.449295897341024
259.0,33.451705046122434
260.0,33.45415684274913
261.0,33.456652012039015
262.0,33.45919124106973
263.0,33.461775180455305
264.0,33.464404445581174
265.0,33.467079617798674
266.0,33.46980124558061
267.0,33.47256984563907
268.0,33.47538590400692
269.0,33.47824987708415
270.0,33.48116219265032
271.0,33.48412325084404
272.0,33.487133425111054
273.0,33.490193063121424
274.0,33.49330248765735
275.0,33.49646199747227
276.0,33.49967186812235
277.0,33.5029323527714
278.0,33.50624368296977
279.0,33.50960606940842
280.0,33.51301970264883
281.0,33.51648475382963
282.0,33.52000137535053
283.0,33.52356970153462
284.0,33.52718984926944
285.0,33.530861918627686
286.0,33.53458599346821
287.0,33.53836214201785
288.0,33.542190417434874
289.0,33.54607085835448
290.0,33.55000348941711
291.0,33.55398832177986
292.0,33.558025353611924
293.0,33.562114570574145
294.0,33.56625594628358
295.0,33.57044944276329
296.0,33.57469501087794
297.0,33.578992590755675
298.0,33.58334211219669
299.0,33.5877434950688
300.0,33.59219664969071
301.0,33.59670147720309
302.0,33.60125786992791
303.0,33.60586571171657
304.0,33.61052487828695
305.0,33.615235237549925
306.0,33.61999664992544
307.0,33.624808968648814
308.0,33.62967204006723
309.0,33.63458570392692
310.0,33.63954979365133
311.0,33.64456413661039
312.0,33.64962855438145
313.0,33.65474286300179
314.0,33.65990687321329
315.0,33.66512039069925
316.0,33.67038321631379
317.0,33.675695146303944
318.0,33.68105597252473
319.0,33.68646548264735
320.0,33.691923460360826
321.0,33.697429685567194
322.0,33.70298393457052
323.0,33.708585980259784
324.0,33.71423559228605
325.0,33.71993253723391
326.0,33.725676578787436
327.0,33.731467477890845
328.0,33.73730499290389
329.0,33.743188879752445
330.0,33.749118892074065
331.0,33.75509478135889
332.0,33.76111629708602
333.0,33.76718318685545
334.0,33.77329519651565
335.0,33.77945207028715
336.0,33.78565355088188
337.0,33.791899379618734
338.0,33.79818929653534
339.0,33.804523040496036
340.0,33.810900349296396
341.0,33.817320959764295
342.0,33.823784607857434
343.0,33.8302910287579
344.0,33.83683995696328
345.0,33.843431126374924
346.0,33.85006427038306
347.0,33.85673912194924
348.0,33.863455413685685
349.0,33.87021287793222
350.0,33.877011246830435
351.0,33.88385025239522
352.0,33.89072962658395
353.0,33.89764910136326
354.0,33.90460840877334
355.0,33.91160728099018
356.0,33.91864545038543
357.0,33.92572264958427
358.0,33.9328386115211
359.0,33.939993069493276
360.0,33.947185757213006
361.0,33.954416408857114
362.0,33.96168475911523
363.0,33.968990543235996
364.0,33.97633349707174
365.0,33.983713357121296
366.0,33.991129860571334
367.0,33.998582745336044
368.0,34.00607175009536
369.0,34.0135966143316
370.0,34.02115707836477
371.0,34.02875288338647
372.0,34.036383771492304
373.0,34.04404948571322
374.0,34.05174977004533
375.0,34.05948436947872
376.0,34.06725303002483
377.0,34.075055498742934
378.0,34.08289152376521
379.0,34.090760854321026
380.0,34.09866324075982
381.0,34.106598434573314
382.0,34.11456618841644
383.0,34.12256625612744
384.0,34.130598392747004
385.0,34.1386623545365
386.0,34.14675789899533
387.0,34.154884784877396
388.0,34.163042772206744
389.0,34.17123162229248
390.0,34.17945109774281
391.0,34.18770096247834
392.0,34.1959809817447
393.0,34.20429092212441
394.0,34.21263055154809
395.0,34.22099963930495
396.0,34.22939795605271
397.0,34.2378252738268
398.0,34.246281366049054
399.0,34.25476600753574
400.0,34.26327897450505
401.0,34.27182004458403
402.0,34.280388996815006
403.0,34.28898561166144
404.0,34.29760967101328
405.0,34.306260958191935
406.0,34.31493925795462
407.0,34.323644356498356
408.0,34.33237604146351
409.0,34.34113410193688
410.0,34.34991832845433
411.0,34.358728513003165
412.0,34.36756444902397
413.0,34.376425931412165
414.0,34.38531275651913
415.0,34.39422472215302
416.0,34.40316162757929
417.0,34.41212327352074
418.0,34.421109462157474
419.0,34.43011999712626
420.0,34.4391546835199
421.0,34.44821332788606
422.0,34.45729573822599
423.0,34.46640172399288
424.0,34.47553109609005
425.0,34.48468366686874
426.0,34.493859250125865
427.0,34.50305766110132
428.0,34.512278716475265
429.0,34.52152223436502
430.0,34.53078803432189
431.0,34.540075937327664
432.0,34.549385765791016
433.0,34.558717343543734
434.0,34.56807049583658
435.0,34.577445049335296
436.0,34.58684083211611
437.0,34.59625767366136
438.0,34.605695404854735
439.0,34.61515385797654
440.0,34.62463286669872
441.0,34.63413226607979
442.0,34.64365189255958
443.0,34.653191583953976
444.0,34.662751179449366
445.0,34.672330519597075
446.0,34.68192944630776
447.0,34.69154780284547
448.0,34.70118543382187
449.0,34.710842185190145
450.0,34.720517904238974
451.0,34.73021243958628
452.0,34.73992564117306
453.0,34.749657360256876
454.0,34.75940744940559
455.0,34.76917576249073
456.0,34.77896215468103
457.0,34.78876648243564
458.0,34.798588603497585
459.0,34.80842837688687
460.0,34.818285662893715
461.0,34.82816032307163
462.0,34.838052220230544
463.0,34.847961218429795
464.0,34.857887182971076
465.0,34.86782998039142
466.0,34.87778947845605
467.0,34.88776554615126
468.0,34.89775805367718
469.0,34.90776687244066
470.0,34.91779187504792
471.0,34.927832935297324
472.0,34.9378899281721
473.0,34.947962729832966
474.0,34.95805121761085
475.0,34.96815526999944
476.0,34.97827476664788
477.0,34.98840958835334
478.0,34.99855961705354
479.0,35.00872473581948
480.0,35.01890482884783
481.0,35.02909978145361
482.0,35.03930948006265
483.0,35.04953381220421
484.0,35.05977266650345
485.0,35.070025932673964
486.0,35.08029350151042
487.0,35.09057526488094
488.0,35.10087111571972
489.0,35.11118094801956
490.0,35.12150465682438
491.0,35.1318421382218
492.0,35.142193289335644
493.0,35.15255800831854
494.0,35.16293619434445
495.0,35.17332774760125
496.0,35.1837325692834
497.0,35.19415056158436
498.0,35.20458162768939
499.0,35.21502567176809
500.0,35.22548259896695
501.0,35.235952315402166
502.0,35.2464347281522
503.0,35.256929745250524
504.0,35.267437275678205
505.0,35.27795722935678
506.0,35.28848951714086
507.0,35.299034050811
508.0,35.30959074306636
509.0,35.320159507517594
510.0,35.330740258679604
511.0,35.34133291196442
512.0,35.35193738367406
513.0,35.362553590993386
514.0,35.373181451983044
515.0,35.383820885572334
516.0,35.39447181155227
517.0,35.40513415056848
518.0,35.41580782411423
519.0,35.426492754523466
520.0,35.437188864963844
521.0,35.44789607942988
522.0,35.458614322735976
523.0,35.46934352050962
524.0,35.4800835991845
525.0,35.490834485993794
526.0,35.501596108963255
527.0,35.512368396904535
528.0,35.5231512794085
529.0,35.53394468683848
530.0,35.544748550323575
531.0,35.55556280175212
532.0,35.566387373765
533.0,35.57722219974913
534.0,35.58806721383081
535.0,35.598922350869344
536.0,35.60978754645046
537.0,35.620662736879915
538.0,35.63154785917698
539.0,35.64244285106818
540.0,35.65334765098081
541.0,35.66426219803671
542.0,35.67518643204582
543.0,35.68612029350007
544.0,35.69706372356708
545.0,35.7080166640839
546.0,35.718979057550904
547.0,35.72995084712563
548.0,35.740931976616665
549.0,35.75192239047754
550.0,35.762922033800734
551.0,35.77393085231161
552.0,35.784948792362464
553.0,35.79597580092652
554.0,35.80701182559211
555.0,35.81805681455667
556.0,35.82911071662093
557.0,35.84017348118312
558.0,35.85124505823312
559.0,35.86232539834675
560.0,35.873414452679995
561.0,35.88451217296333
562.0,35.89561851149604
563.0,35.906733421140615
564.0,35.91785685531709
565.0,35.928988767997545
566.0,35.94012911370049
567.0,35.95127784748545
568.0,35.962434924947324
569.0,35.973600302211175
570.0,35.98477393592658
571.0,35.99595578326241
572.0,36.00714580190137
573.0,36.018343950034804
574.0,36.02955018635725
575.0,36.04076447006126
576.0,36.05198676083224
577.0,36.06321701884312
578.0,36.07445520474928
579.0,36.08570127968335
580.0,36.09695520525016
581.0,36.10821694352163
582.0,36.11948645703179
583.0,36.13076370877161
584.0,36.142048662184195
585.0,36.15334128115975
586.0,36.1646415300306
587.0,36.17594937356643
588.0,36.18726477696928
589.0,36.19858770586883
590.0,36.20991812631747
591.0,36.22125600478563
592.0,36.232601308157
593.0,36.24395400372379
594.0,36.25531405918205
595.0,36.26668144262701
596.0,36.27805612254846
597.0,36.28943806782615
598.0,36.30082724772518
599.0,36.3122236318915
600.0,36.32362719034736
601.0,36.33503789348682
602.0,36.34645571207132
603.0,36.35788061722519
604.0,36.36931258043133
605.0,36.38075157352672
606.0,36.39219756869819
607.0,36.403650538477955
608.0,36.41511045573948
609.0,36.42657729369306
610.0,36.438051025881684
611.0,36.449531626176785
612.0,36.461019068774
613.0,36.472513328189095
614.0,36.48401437925376
615.0,36.49552219711155
616.0,36.50703675721373
617.0,36.51855803531533
618.0,36.53008600747099
619.0,36.54162065003102
620.0,36.55316193963742
621.0,36.564709853219895
622.0,36.57626436799195
623.0,36.587825461447
624.0,36.5993931113544
625.0,36.61096729575573
626.0,36.622547992960826
627.0,36.63413518154407
628.0,36.64572884034058
629.0,36.657328948442434
630.0,36.668935485194964
631.0,36.68054843019299
632.0,36.69216776327725
633.0,36.703793464530584
634.0,36.71542551427447
635.0,36.72706389306523
636.0,36.73870858169055
637.0,36.75035956116595
638.0,36.76201681273109
639.0,36.77368031784638
640.0,36.785350058189415
641.0,36.79702601565155
642.0,36.80870817233438
643.0,36.82039651054635
644.0,36.83209101279936
645.0,36.84379166180532
646.0,36.85549844047284
647.0,36.867211331903874
648.0,36.87893031939035
649.0,36.89065538641096
650.0,36.9023865166278
651.0,36.91412369388314
652.0,36.925866902196184
653.0,36.93761612575989
654.0,36.9493713489377
655.0,36.961132556260445
656.0,36.97289973242315
657.0,36.98467286228189
658.0,36.99645193085071
659.0,37.008236923298504
660.0,37.020027824946006
661.0,37.03182462126257
662.0,37.04362729786342
663.0,37.05543584050633
664.0,37.06725023508885
665.0,37.079070467645245
666.0,37.090896524343506
667.0,37.10272839148255
668.0,37.114566055489114
669.0,37.12640950291504
670.0,37.138258720434266
671.0,37.150113694840044
672.0,37.16197441304203
673.0,37.17384086206357
674.0,37.18571302903878
675.0,37.19759090120982
676.0,37.209474465924096
677.0,37.221363710631586
678.0,37.233258622881976
679.0,37.24515919032211
680.0,37.257065400693115
681.0,37.26897724182787
682.0,37.280894701648286
683.0,37.29281776816266
684.0,37.30474642946299
685.0,37.316680673722544
686.0,37.32862048919306
687.0,37.340565864202276
688.0,37.35251678715137
689.0,37.36447324651241
690.0,37.37643523082579
691.0,37.38840272869779
692.0,37.400375728798
693.0,37.4123542198569
694.0,37.424338190663406
695.0,37.43632763006238
696.0,37.448322526952225
697.0,37.460322870282475
698.0,37.47232864905138
699.0,37.484339852303556
700.0,37.49635646912758
701.0,37.508378488653676
702.0,37.52040590005133
703.0,37.53243869252701
704.0,37.544476855321854
705.0,37.556520377709354
706.0,37.568569248993114
707.0,37.58062345850453
708.0,37.592682995600654
709.0,37.604747849661834
710.0,37.61681801008955
711.0,37.62889346630424
712.0,37.640974207743064
713.0,37.65306022385777
714.0,37.66515150411246
715.0,37.677248037981535
716.0,37.689349814947505
717.0,37.70145682449886
718.0,37.713569056128
719.0,37.725686499329136
720.0,37.73780914359618
721.0,37.7499369784207
722.0,37.76206999328989
723.0,37.77420817768448
724.0,37.78635152107676
725.0,37.79850001292849
726.0,37.810653642689026
727.0,37.82281239979321
728.0,37.83497627365943
729.0,37.84714525368772
730.0,37.85931932925771
731.0,37.87149848972679
732.0,37.88368272442806
733.0,37.895872022668584
734.0,37.9080663737273
735.0,37.92026576685333
736.0,37.9324701912639
737.0,37.94467963614264
738.0,37.95689409063765
739.0,37.969113543859706
740.0,37.98133798488034
741.0,37.99356740273014
742.0,38.0058017863969
743.0,38.01804112482376
744.0,38.03028540690754
745.0,38.04253462149685
746.0,38.05478875739045
747.0,38.06704780333537
748.0,38.07931174802531
749.0,38.09158058009882
750.0,38.10385428813758
751.0,38.11613286066475
752.0,38.12841628614323
753.0,38.14070455297403
754.0,38.15299764949453
755.0,38.165295563976876
756.0,38.17759828462627
757.0,38.1899057995794
758.0,38.20221809690272
759.0,38.21453516459094
760.0,38.2268569905653
761.0,38.23918356267206
762.0,38.251514868680864
763.0,38.26385089628315
764.0,38.27619163309062
765.0,38.2885370666337
766.0,38.30088718435984
767.0,38.313241973632174
768.0,38.325601421727875
769.0,38.33796551583664
770.0,38.3503342430592
771.0,38.36270759040579
772.0,38.37508554479472
773.0,38.38746809305081
774.0,38.39985522190396
775.0,38.41224691798769
776.0,38.42464316783764
777.0,38.437043957890175
778.0,38.449449274480926
779.0,38.46185910384336
780.0,38.47427343210733
781.0,38.48669224529772
782.0,38.49911552933303
783.0,38.51154327002393
784.0,38.52397545307194
785.0,38.536412064067996
786.0,38.54885308849113
787.0,38.56129851170713
788.0,38.573748318967034
789.0,38.58620249540602
790.0,38.59866102604192
791.0,38.6111238957739
792.0,38.623591089381186
793.0,38.63606259152175
794.0,38.648538386731
795.0,38.66101845942045
796.0,38.673502793876445
797.0,38.68599137425901
798.0,38.69848418460038
799.0,38.710981208803844
800.0,38.723482430642505
801.0,38.735987833757996
802.0,38.74849740165923
803.0,38.76101111772123
804.0,38.7735289651838
805.0,38.78605092715045
806.0,38.79857698658706
807.0,38.81110712632074
808.0,38.823641329038615
809.0,38.836179577286686
810.0,38.84872185346855
811.0,38.861268139844306
812.0,38.8738184185294
813.0,38.88637267149343
814.0,38.89893088055899
815.0,38.9114930274005
816.0,38.92405909354322
817.0,38.936629060361895
818.0,38.949202909079766
819.0,38.961780620767456
820.0,38.97436217634185
821.0,38.98694755656494
822.0,38.999536742042764
823.0,39.01212971322434
824.0,39.024726450400536
825.0,39.037326933703035
826.0,39.049931143103215
827.0,39.06253905841119
828.0,39.07515065927457
829.0,39.08776592517761
830.0,39.10038483544001
831.0,39.113007369216
832.0,39.1256335054932
833.0,39.138263223091656
834.0,39.150896500662824
835.0,39.1635333166885
836.0,39.17617364947989
837.0,39.188817477176535
838.0,39.201464777745386
839.0,39.21411552897975
840.0,39.22676970849833
841.0,39.23942729374429
842.0,39.25208826198417
843.0,39.26475259030707
844.0,39.27742025562359
845.0,39.29009123466486
846.0,39.30276550398167
847.0,39.315443039943496
848.0,39.32812381873749
849.0,39.34080781636767
850.0,39.35349500865392
851.0,39.36618537123107
852.0,39.378878879547955
853.0,39.39157550886664
854.0,39.40427523426131
855.0,39.41697803061754
856.0,39.42968387263132
857.0,39.44239273480816
858.0,39.455104591462295
859.0,39.467819416715635
860.0,39.48053718449712
861.0,39.49325786854162
862.0,39.505981442389256
863.0,39.5187078793844
864.0,39.53143715267497
865.0,39.5441692352114
866.0,39.556904099746006
867.0,39.56964171883197
868.0,39.58238206482257
869.0,39.595125109870374
870.0,39.607870825926405
871.0,39.62061918473936
872.0,39.63337015785463
873.0,39.64612371661376
874.0,39.658879832153374
875.0,39.67163847540459
876.0,39.684399617092076
877.0,39.69716322773335
878.0,39.70992927763792
879.0,39.72269773690661
880.0,39.73546857543067
881.0,39.74824176289107
882.0,39.76101726875768
883.0,39.77379506228858
884.0,39.786575112529235
885.0,39.7993573883118
886.0,39.812141858254265
887.0,39.82492849075986
888.0,39.8377172540162
889.0,39.85050811599457
890.0,39.86330104444919
891.0,39.876096006916555
892.0,39.88889297071459
893.0,39.901691902942034
894.0,39.91449277047767
895.0,39.92729553997962
896.0,39.94010017788465
897.0,39.95290665040747
898.0,39.965714923539984
899.0,39.97852496305065
900.0,39.991336734483795
901.0,40.00415020315888
902.0,40.01696533416982
903.0,40.02978209238435
904.0,40.04260044244331
905.0,40.05542034875996
906.0,40.06824177551937
907.0,40.0810646866777
908.0,40.093889045961525
909.0,40.10671481686727
910.0,40.119541962660456
911.0,40.13237044637507
912.0,40.145200230812996
913.0,40.158031278543255
914.0,40.17086355190149
915.0,40.18369701298916
916.0,40.19653162367312
917.0,40.20936734558485
918.0,40.22220414011984
919.0,40.23504196843701
920.0,40.247880791458094
921.0,40.260720569867
922.0,40.273561264109176
923.0,40.28640283439109
924.0,40.29924524067953
925.0,40.31208844270103
926.0,40.32493239994135
927.0,40.33777707164476
928.0,40.35062241681351
929.0,40.3634683942073
930.0,40.37631496234252
931.0,40.38916207949193
932.0,40.402009703683824
933.0,40.414857792701625
934.0,40.42770630408321
935.0,40.440555195120474
936.0,40.45340442285859
937.0,40.46625394409562
938.0,40.47910371538179
939.0,40.4919536930191
940.0,40.504803833060635
941.0,40.51765409131008
942.0,40.530504423321226
943.0,40.543354784397266
944.0,40.55620512959046
945.0,40.56905541370139
946.0,40.58190559127861
947.0,40.594755616618
948.0,40.60760544376225
949.0,40.62045502650041
950.0,40.63330431836725
951.0,40.64615327264286
952.0,40.65900184235205
953.0,40.671849980263865
954.0,40.68469763889102
955.0,40.697544770489536
956.0,40.71039132705808
957.0,40.72323726033751
958.0,40.73608252181047
959.0,40.74892706270067
960.0,40.76177083397268
961.0,40.77461378633122
962.0,40.7874558702207
963.0,40.800297035824826
964.0,40.813137233066044
965.0,40.825976411605104
966.0,40.838814520840536
967.0,40.851651509908145
968.0,40.864487327680685
969.0,40.877321922767194
970.0,40.890155243512666
971.0,40.902987237997536
972.0,40.915817854037186
973.0,40.92864703918158
974.0,40.941474740714675
975.0,40.95430090565408
976.0,40.96712548075053
977.0,40.97994841248743
978.0,40.9927696470805
979.0,41.005589130477226
980.0,41.01840680835648
981.0,41.03122262612801
982.0,41.044036528932104
983.0,41.056848461639035
984.0,41.0696583688487
985.0,41.08246619489019
986.0,41.095271883821354
987.0,41.1080753794283
988.0,41.120876625225115
989.0,41.13367556445326
990.0,41.14647214008133
991.0,41.15926629480458
992.0,41.17205797104431
993.0,41.18484711094779
994.0,41.19763365638762
995.0,41.210417548961395
996.0,41.22319872999127
997.0,41.23597714052353
998.0,41.24875272132834
999.0,41.261525412899054
1000.0,41.27429515545216
1000.0,39.94186404532555
1001.0,39.97012350068127
1002.0,39.99827065923172
1003.0,40.02630616142773
1004.0,40.05423064379784
1005.0,40.08204473897478
1006.0,40.10974907572157
1007.0,40.13734427895741
1008.0,40.164830969783516
1009.0,40.19220976550875
1010.0,40.21948127967484
1011.0,40.2466461220817
1012.0,40.27370489881238
1013.0,40.3006582122579
1014.0,40.327506661141875
1015.0,40.354250840544864
1016.0,40.380891341928866
1017.0,40.40742875316115
1018.0,40.433863658538314
1019.0,40.46019663880996
1020.0,40.48642827120228
1021.0,40.51255912944139
